# this is a profile of one particle velocity as a function of time subject to drag
# the parameters are compatible with input files: charles_lpLiquid_drag_1w.in/charles_lpLiquid_drag_2w.in
# column 1: time
# column 2: particle velocity
# u = exp(-t/tau); tau = 0.0166166683283
0.000000000000000000e+00 1.000000000000000000e+00
1.001001001001001047e-04 9.939940307370428441e-01
2.002002002002002093e-04 9.880241331408733396e-01
3.003003003003003411e-04 9.820900905661693603e-01
4.004004004004004186e-04 9.761916876687741773e-01
5.005005005005004962e-04 9.703287103978812667e-01
6.006006006006006821e-04 9.645009459882667446e-01
7.007007007007007597e-04 9.587081829525680998e-01
8.008008008008008372e-04 9.529502110736094433e-01
9.009009009009009148e-04 9.472268213967728334e-01
1.001001001001000992e-03 9.415378062224152300e-01
1.101101101101101178e-03 9.358829590983313018e-01
1.201201201201201364e-03 9.302620748122613081e-01
1.301301301301301333e-03 9.246749493844441670e-01
1.401401401401401519e-03 9.191213800602147099e-01
1.501501501501501488e-03 9.136011653026463453e-01
1.601601601601601674e-03 9.081141047852367976e-01
1.701701701701701860e-03 9.026599993846388115e-01
1.801801801801801830e-03 8.972386511734338210e-01
1.901901901901902016e-03 8.918498634129490288e-01
2.002002002002001985e-03 8.864934405461183387e-01
2.102102102102102171e-03 8.811691881903852552e-01
2.202202202202202357e-03 8.758769131306488598e-01
2.302302302302302543e-03 8.706164233122524188e-01
2.402402402402402729e-03 8.653875278340132926e-01
2.502502502502502481e-03 8.601900369412958103e-01
2.602602602602602667e-03 8.550237620191244448e-01
2.702702702702702853e-03 8.498885155853395101e-01
2.802802802802803039e-03 8.447841112837937150e-01
2.902902902902903225e-03 8.397103638775886836e-01
3.003003003003002977e-03 8.346670892423533328e-01
3.103103103103103163e-03 8.296541043595618836e-01
3.203203203203203349e-03 8.246712273098920631e-01
3.303303303303303535e-03 8.197182772666237183e-01
3.403403403403403721e-03 8.147950744890761765e-01
3.503503503503503473e-03 8.099014403160859077e-01
3.603603603603603659e-03 8.050371971595228215e-01
3.703703703703703845e-03 8.002021684978455340e-01
3.803803803803804031e-03 7.953961788696958246e-01
3.903903903903904217e-03 7.906190538675308410e-01
4.004004004004003969e-03 7.858706201312942730e-01
4.104104104104104589e-03 7.811507053421246072e-01
4.204204204204204341e-03 7.764591382161024624e-01
4.304304304304304093e-03 7.717957484980344507e-01
4.404404404404404713e-03 7.671603669552742311e-01
4.504504504504504465e-03 7.625528253715819771e-01
4.604604604604605085e-03 7.579729565410190384e-01
4.704704704704704837e-03 7.534205942618810159e-01
4.804804804804805457e-03 7.488955733306651430e-01
4.904904904904905209e-03 7.443977295360765245e-01
5.005005005005004962e-03 7.399268996530677933e-01
5.105105105105105581e-03 7.354829214369162926e-01
5.205205205205205334e-03 7.310656336173362302e-01
5.305305305305305953e-03 7.266748758926262486e-01
5.405405405405405705e-03 7.223104889238519677e-01
5.505505505505505458e-03 7.179723143290637211e-01
5.605605605605606077e-03 7.136601946775491534e-01
5.705705705705705830e-03 7.093739734841197908e-01
5.805805805805806449e-03 7.051134952034323611e-01
5.905905905905906202e-03 7.008786052243443088e-01
6.006006006006005954e-03 6.966691498643026170e-01
6.106106106106106574e-03 6.924849763637671574e-01
6.206206206206206326e-03 6.883259328806667909e-01
6.306306306306306945e-03 6.841918684848892207e-01
6.406406406406406698e-03 6.800826331528037061e-01
6.506506506506506450e-03 6.759980777618169734e-01
6.606606606606607070e-03 6.719380540849614336e-01
6.706706706706706822e-03 6.679024147855159299e-01
6.806806806806807442e-03 6.638910134116592365e-01
6.906906906906907194e-03 6.599037043911553102e-01
7.007007007007006946e-03 6.559403430260705159e-01
7.107107107107107566e-03 6.520007854875223829e-01
7.207207207207207318e-03 6.480848888104604466e-01
7.307307307307307938e-03 6.441925108884777318e-01
7.407407407407407690e-03 6.403235104686544332e-01
7.507507507507507442e-03 6.364777471464307945e-01
7.607607607607608062e-03 6.326550813605131829e-01
7.707707707707707814e-03 6.288553743878082525e-01
7.807807807807808434e-03 6.250784883383896373e-01
7.907907907907909054e-03 6.213242861504936210e-01
8.008008008008007939e-03 6.175926315855450044e-01
8.108108108108108558e-03 6.138833892232133937e-01
8.208208208208209178e-03 6.101964244564987982e-01
8.308308308308308063e-03 6.065316034868467598e-01
8.408408408408408682e-03 6.028887933192925708e-01
8.508508508508509302e-03 5.992678617576355782e-01
8.608608608608608187e-03 5.956686773996412443e-01
8.708708708708708807e-03 5.920911096322726275e-01
8.808808808808809426e-03 5.885350286269509512e-01
8.908908908908910046e-03 5.850003053348438176e-01
9.009009009009008931e-03 5.814868114821822864e-01
9.109109109109109551e-03 5.779944195656053774e-01
9.209209209209210170e-03 5.745230028475335482e-01
9.309309309309309055e-03 5.710724353515694851e-01
9.409409409409409675e-03 5.676425918579258711e-01
9.509509509509510294e-03 5.642333478988817985e-01
9.609609609609610914e-03 5.608445797542657152e-01
9.709709709709709799e-03 5.574761644469654609e-01
9.809809809809810419e-03 5.541279797384657257e-01
9.909909909909911038e-03 5.507999041244120431e-01
1.001001001001000992e-02 5.474918168302010946e-01
1.011011011011011054e-02 5.442035978065983270e-01
1.021021021021021116e-02 5.409351277253812151e-01
1.031031031031031005e-02 5.376862879750087254e-01
1.041041041041041067e-02 5.344569606563173148e-01
1.051051051051051129e-02 5.312470285782419088e-01
1.061061061061061191e-02 5.280563752535637478e-01
1.071071071071071079e-02 5.248848848946823242e-01
1.081081081081081141e-02 5.217324424094139657e-01
1.091091091091091203e-02 5.185989333968155091e-01
1.101101101101101092e-02 5.154842441430319555e-01
1.111111111111111154e-02 5.123882616171701043e-01
1.121121121121121215e-02 5.093108734671973892e-01
1.131131131131131104e-02 5.062519680158635849e-01
1.141141141141141166e-02 5.032114342566487153e-01
1.151151151151151228e-02 5.001891618497347203e-01
1.161161161161161290e-02 4.971850411180008811e-01
1.171171171171171178e-02 4.941989630430441149e-01
1.181181181181181240e-02 4.912308192612223068e-01
1.191191191191191302e-02 4.882805020597221213e-01
1.201201201201201191e-02 4.853479043726501851e-01
1.211211211211211253e-02 4.824329197771473621e-01
1.221221221221221315e-02 4.795354424895271195e-01
1.231231231231231203e-02 4.766553673614365438e-01
1.241241241241241265e-02 4.737925898760401711e-01
1.251251251251251327e-02 4.709470061442277977e-01
1.261261261261261389e-02 4.681185129008438861e-01
1.271271271271271278e-02 4.653070075009402284e-01
1.281281281281281340e-02 4.625123879160509821e-01
1.291291291291291402e-02 4.597345527304902424e-01
1.301301301301301290e-02 4.569734011376715976e-01
1.311311311311311352e-02 4.542288329364497779e-01
1.321321321321321414e-02 4.515007485274845078e-01
1.331331331331331476e-02 4.487890489096263424e-01
1.341341341341341364e-02 4.460936356763233190e-01
1.351351351351351426e-02 4.434144110120505355e-01
1.361361361361361488e-02 4.407512776887599348e-01
1.371371371371371377e-02 4.381041390623521270e-01
1.381381381381381439e-02 4.354728990691693613e-01
1.391391391391391501e-02 4.328574622225090929e-01
1.401401401401401389e-02 4.302577336091590876e-01
1.411411411411411451e-02 4.276736188859528442e-01
1.421421421421421513e-02 4.251050242763461662e-01
1.431431431431431575e-02 4.225518565670137727e-01
1.441441441441441464e-02 4.200140231044668382e-01
1.451451451451451526e-02 4.174914317916904039e-01
1.461461461461461588e-02 4.149839910848015512e-01
1.471471471471471476e-02 4.124916099897270039e-01
1.481481481481481538e-02 4.100141980589009361e-01
1.491491491491491600e-02 4.075516653879831530e-01
1.501501501501501488e-02 4.051039226125959791e-01
1.511511511511511550e-02 4.026708809050813520e-01
1.521521521521521612e-02 4.002524519712775675e-01
1.531531531531531674e-02 3.978485480473147873e-01
1.541541541541541563e-02 3.954590818964305310e-01
1.551551551551551625e-02 3.930839668058033198e-01
1.561561561561561687e-02 3.907231165834063602e-01
1.571571571571571749e-02 3.883764455548796013e-01
1.581581581581581811e-02 3.860438685604204445e-01
1.591591591591591526e-02 3.837253009516935487e-01
1.601601601601601588e-02 3.814206585887587320e-01
1.611611611611611650e-02 3.791298578370176919e-01
1.621621621621621712e-02 3.768528155641792665e-01
1.631631631631631774e-02 3.745894491372419588e-01
1.641641641641641836e-02 3.723396764194956132e-01
1.651651651651651898e-02 3.701034157675406888e-01
1.661661661661661613e-02 3.678805860283254625e-01
1.671671671671671675e-02 3.656711065362006630e-01
1.681681681681681736e-02 3.634748971099927006e-01
1.691691691691691798e-02 3.612918780500936067e-01
1.701701701701701860e-02 3.591219701355686245e-01
1.711711711711711922e-02 3.569650946212817866e-01
1.721721721721721637e-02 3.548211732350378678e-01
1.731731731731731699e-02 3.526901281747418238e-01
1.741741741741741761e-02 3.505718821055758827e-01
1.751751751751751823e-02 3.484663581571927904e-01
1.761761761761761885e-02 3.463734799209260418e-01
1.771771771771771947e-02 3.442931714470174320e-01
1.781781781781782009e-02 3.422253572418605394e-01
1.791791791791791724e-02 3.401699622652615274e-01
1.801801801801801786e-02 3.381269119277150459e-01
1.811811811811811848e-02 3.360961320876985625e-01
1.821821821821821910e-02 3.340775490489810706e-01
1.831831831831831972e-02 3.320710895579487842e-01
1.841841841841842034e-02 3.300766808009470421e-01
1.851851851851852096e-02 3.280942504016376993e-01
1.861861861861861811e-02 3.261237264183725060e-01
1.871871871871871873e-02 3.241650373415826958e-01
1.881881881881881935e-02 3.222181120911838392e-01
1.891891891891891997e-02 3.202828800139960741e-01
1.901901901901902059e-02 3.183592708811806005e-01
1.911911911911912121e-02 3.164472148856908307e-01
1.921921921921922183e-02 3.145466426397389159e-01
1.931931931931931898e-02 3.126574851722783155e-01
1.941941941941941960e-02 3.107796739265001329e-01
1.951951951951952022e-02 3.089131407573457722e-01
1.961961961961962084e-02 3.070578179290335274e-01
1.971971971971972146e-02 3.052136381126010489e-01
1.981981981981982208e-02 3.033805343834614643e-01
1.991991991991991923e-02 3.015584402189749325e-01
2.002002002002001985e-02 2.997472894960344081e-01
2.012012012012012047e-02 2.979470164886665606e-01
2.022022022022022109e-02 2.961575558656458496e-01
2.032032032032032171e-02 2.943788426881241982e-01
2.042042042042042232e-02 2.926108124072744898e-01
2.052052052052052294e-02 2.908534008619474420e-01
2.062062062062062009e-02 2.891065442763440796e-01
2.072072072072072071e-02 2.873701792577005310e-01
2.082082082082082133e-02 2.856442427939883677e-01
2.092092092092092195e-02 2.839286722516269901e-01
2.102102102102102257e-02 2.822234053732114445e-01
2.112112112112112319e-02 2.805283802752528421e-01
2.122122122122122381e-02 2.788435354459324889e-01
2.132132132132132096e-02 2.771688097428700037e-01
2.142142142142142158e-02 2.755041423909039278e-01
2.152152152152152220e-02 2.738494729798867655e-01
2.162162162162162282e-02 2.722047414624925166e-01
2.172172172172172344e-02 2.705698881520376409e-01
2.182182182182182406e-02 2.689448537203146805e-01
2.192192192192192121e-02 2.673295791954400369e-01
2.202202202202202183e-02 2.657240059597129611e-01
2.212212212212212245e-02 2.641280757474890883e-01
2.222222222222222307e-02 2.625417306430656295e-01
2.232232232232232369e-02 2.609649130785797744e-01
2.242242242242242431e-02 2.593975658319195299e-01
2.252252252252252493e-02 2.578396320246471030e-01
2.262262262262262208e-02 2.562910551199349407e-01
2.272272272272272270e-02 2.547517789205137606e-01
2.282282282282282332e-02 2.532217475666335149e-01
2.292292292292292394e-02 2.517009055340359569e-01
2.302302302302302456e-02 2.501891976319400857e-01
2.312312312312312518e-02 2.486865690010387486e-01
2.322322322322322580e-02 2.471929651115082061e-01
2.332332332332332295e-02 2.457083317610293249e-01
2.342342342342342357e-02 2.442326150728200973e-01
2.352352352352352419e-02 2.427657614936810648e-01
2.362362362362362481e-02 2.413077177920516514e-01
2.372372372372372543e-02 2.398584310560782362e-01
2.382382382382382605e-02 2.384178486916942730e-01
2.392392392392392667e-02 2.369859184207116221e-01
2.402402402402402382e-02 2.355625882789231795e-01
2.412412412412412444e-02 2.341478066142173298e-01
2.422422422422422505e-02 2.327415220847034727e-01
2.432432432432432567e-02 2.313436836568489308e-01
2.442442442442442629e-02 2.299542406036265696e-01
2.452452452452452691e-02 2.285731425026745200e-01
2.462462462462462406e-02 2.272003392344660033e-01
2.472472472472472468e-02 2.258357809804903416e-01
2.482482482482482530e-02 2.244794182214455980e-01
2.492492492492492592e-02 2.231312017354410981e-01
2.502502502502502654e-02 2.217910825962113308e-01
2.512512512512512716e-02 2.204590121713404793e-01
2.522522522522522778e-02 2.191349421204975279e-01
2.532532532532532493e-02 2.178188243936819701e-01
2.542542542542542555e-02 2.165106112294800378e-01
2.552552552552552617e-02 2.152102551533316976e-01
2.562562562562562679e-02 2.139177089758076411e-01
2.572572572572572741e-02 2.126329257908967096e-01
2.582582582582582803e-02 2.113558589743039229e-01
2.592592592592592865e-02 2.100864621817583600e-01
2.602602602602602580e-02 2.088246893473313381e-01
2.612612612612612642e-02 2.075704946817646668e-01
2.622622622622622704e-02 2.063238326708091985e-01
2.632632632632632766e-02 2.050846580735727898e-01
2.642642642642642828e-02 2.038529259208788080e-01
2.652652652652652890e-02 2.026285915136341598e-01
2.662662662662662952e-02 2.014116104212069491e-01
2.672672672672672667e-02 2.002019384798145174e-01
2.682682682682682729e-02 1.989995317909202810e-01
2.692692692692692791e-02 1.978043467196411997e-01
2.702702702702702853e-02 1.966163398931636830e-01
2.712712712712712915e-02 1.954354681991701814e-01
2.722722722722722977e-02 1.942616887842743556e-01
2.732732732732732692e-02 1.930949590524658754e-01
2.742742742742742754e-02 1.919352366635647955e-01
2.752752752752752816e-02 1.907824795316850341e-01
2.762762762762762878e-02 1.896366458237069563e-01
2.772772772772772940e-02 1.884976939577594768e-01
2.782782782782783002e-02 1.873655826017108783e-01
2.792792792792793063e-02 1.862402706716689282e-01
2.802802802802802778e-02 1.851217173304900987e-01
2.812812812812812840e-02 1.840098819862973634e-01
2.822822822822822902e-02 1.829047242910072646e-01
2.832832832832832964e-02 1.818062041388658068e-01
2.842842842842843026e-02 1.807142816649928985e-01
2.852852852852853088e-02 1.796289172439355375e-01
2.862862862862863150e-02 1.785500714882301831e-01
2.872872872872872865e-02 1.774777052469730942e-01
2.882882882882882927e-02 1.764117796043996045e-01
2.892892892892892989e-02 1.753522558784720020e-01
2.902902902902903051e-02 1.742990956194756802e-01
2.912912912912913113e-02 1.732522606086239203e-01
2.922922922922923175e-02 1.722117128566706679e-01
2.932932932932933237e-02 1.711774146025322740e-01
2.942942942942942952e-02 1.701493283119170641e-01
2.952952952952953014e-02 1.691274166759628439e-01
2.962962962962963076e-02 1.681116426098836492e-01
2.972972972972973138e-02 1.671019692516234889e-01
2.982982982982983200e-02 1.660983599605186101e-01
2.992992992992993262e-02 1.651007783159681164e-01
3.003003003003002977e-02 1.641091881161121369e-01
3.013013013013013039e-02 1.631235533765179324e-01
3.023023023023023101e-02 1.621438383288741902e-01
3.033033033033033163e-02 1.611700074196930899e-01
3.043043043043043225e-02 1.602020253090198354e-01
3.053053053053053287e-02 1.592398568691503757e-01
3.063063063063063349e-02 1.582834671833565354e-01
3.073073073073073064e-02 1.573328215446190836e-01
3.083083083083083126e-02 1.563878854543677421e-01
3.093093093093093188e-02 1.554486246212299361e-01
3.103103103103103250e-02 1.545150049597859010e-01
3.113113113113113312e-02 1.535869925893317278e-01
3.123123123123123374e-02 1.526645538326501517e-01
3.133133133133133436e-02 1.517476552147882241e-01
3.143143143143143498e-02 1.508362634618423681e-01
3.153153153153153559e-02 1.499303454997512330e-01
3.163163163163163621e-02 1.490298684530951823e-01
3.173173173173172990e-02 1.481347996439034143e-01
3.183183183183183051e-02 1.472451065904678003e-01
3.193193193193193113e-02 1.463607570061645768e-01
3.203203203203203175e-02 1.454817187982824223e-01
3.213213213213213237e-02 1.446079600668577492e-01
3.223223223223223299e-02 1.437394491035172694e-01
3.233233233233233361e-02 1.428761543903271647e-01
3.243243243243243423e-02 1.420180445986493345e-01
3.253253253253253485e-02 1.411650885880045558e-01
3.263263263263263547e-02 1.403172554049423870e-01
3.273273273273273609e-02 1.394745142819177885e-01
3.283283283283283671e-02 1.386368346361746828e-01
3.293293293293293733e-02 1.378041860686361753e-01
3.303303303303303795e-02 1.369765383628011035e-01
3.313313313313313163e-02 1.361538614836478867e-01
3.323323323323323225e-02 1.353361255765441751e-01
3.333333333333333287e-02 1.345233009661637169e-01
3.343343343343343349e-02 1.337153581554094139e-01
3.353353353353353411e-02 1.329122678243427336e-01
3.363363363363363473e-02 1.321140008291197820e-01
3.373373373373373535e-02 1.313205282009337893e-01
3.383383383383383597e-02 1.305318211449637000e-01
3.393393393393393659e-02 1.297478510393292039e-01
3.403403403403403721e-02 1.289685894340522609e-01
3.413413413413413783e-02 1.281940080500244272e-01
3.423423423423423845e-02 1.274240787779806483e-01
3.433433433433433907e-02 1.266587736774794914e-01
3.443443443443443275e-02 1.258980649758887627e-01
3.453453453453453337e-02 1.251419250673777572e-01
3.463463463463463399e-02 1.243903265119158108e-01
3.473473473473473461e-02 1.236432420342760546e-01
3.483483483483483523e-02 1.229006445230457906e-01
3.493493493493493585e-02 1.221625070296427640e-01
3.503503503503503647e-02 1.214288027673369602e-01
3.513513513513513709e-02 1.206995051102786043e-01
3.523523523523523771e-02 1.199745875925321559e-01
3.533533533533533832e-02 1.192540239071154529e-01
3.543543543543543894e-02 1.185377879050453220e-01
3.553553553553553956e-02 1.178258535943887131e-01
3.563563563563564018e-02 1.171181951393190784e-01
3.573573573573574080e-02 1.164147868591793311e-01
3.583583583583583448e-02 1.157156032275494517e-01
3.593593593593593510e-02 1.150206188713202154e-01
3.603603603603603572e-02 1.143298085697727756e-01
3.613613613613613634e-02 1.136431472536629517e-01
3.623623623623623696e-02 1.129606100043117067e-01
3.633633633633633758e-02 1.122821720527009265e-01
3.643643643643643820e-02 1.116078087785743606e-01
3.653653653653653882e-02 1.109374957095442121e-01
3.663663663663663944e-02 1.102712085202032510e-01
3.673673673673674006e-02 1.096089230312417978e-01
3.683683683683684068e-02 1.089506152085702867e-01
3.693693693693694130e-02 1.082962611624473520e-01
3.703703703703704192e-02 1.076458371466125219e-01
3.713713713713713560e-02 1.069993195574246991e-01
3.723723723723723622e-02 1.063566849330054853e-01
3.733733733733733684e-02 1.057179099523878479e-01
3.743743743743743746e-02 1.050829714346697003e-01
3.753753753753753808e-02 1.044518463381728934e-01
3.763763763763763870e-02 1.038245117596067052e-01
3.773773773773773932e-02 1.032009449332369488e-01
3.783783783783783994e-02 1.025811232300598008e-01
3.793793793793794056e-02 1.019650241569804577e-01
3.803803803803804118e-02 1.013526253559969142e-01
3.813813813813814180e-02 1.007439046033888064e-01
3.823823823823824242e-02 1.001388398089105708e-01
3.833833833833834304e-02 9.953740901499003035e-02
3.843843843843844366e-02 9.893959039593162863e-02
3.853853853853853734e-02 9.834536225712410540e-02
3.863863863863863796e-02 9.775470303425344565e-02
3.873873873873873858e-02 9.716759129252022786e-02
3.883883883883883920e-02 9.658400572586173238e-02
3.893893893893893982e-02 9.600392515617894862e-02
3.903903903903904044e-02 9.542732853256770398e-02
3.913913913913914105e-02 9.485419493055495532e-02
3.923923923923924167e-02 9.428450355133950744e-02
3.933933933933934229e-02 9.371823372103700589e-02
